frame,frequency
0,21.70809809693911
1,21.880426615843096
2,22.055513023827086
3,22.233426041062827
4,22.414231132695182
5,22.59800031598173
6,22.784812412045735
7,22.97473305990055
8,23.16784987592629
9,23.364237325807952
10,23.563984696350452
11,23.76718099906082
12,23.973904367352294
13,24.18425885447021
14,24.398340607735832
15,24.616242909510635
16,24.83807243527702
17,25.063938783691174
18,25.293949002010642
19,25.528221493252854
20,25.766869474787143
21,26.01002648243164
22,26.257815472442577
23,26.510368711243117
24,26.767828178255805
25,27.03033705598787
26,27.298048756836064
27,27.57111522578719
28,27.849699077219434
29,28.1339740734315
30,28.42410683998284
31,28.72029122549463
32,29.0227016929978
33,29.331563297997068
34,29.647056330662195
35,29.969416142677503
36,30.298865971318545
37,30.63563978385168
38,30.979979351189858
39,31.33214837506356
40,31.69241964951241
41,32.061071915346
42,32.43840077938567
43,32.82470870648895
44,33.220338197669186
45,33.62561477037112
46,34.0409132147382
47,34.4665883089962
48,34.90304253532398
49,35.35070162452433
50,35.80998817785667
51,36.28136114025707
52,36.76532600876582
53,37.26235553092583
54,37.77301609831178
55,38.29786836603622
56,38.837513479840574
57,39.39258247602739
58,39.963755545068786
59,40.55172487751131
60,41.157258430325435
61,41.78114976448352
62,42.424242656125394
63,43.087448464567686
64,43.77171204438109
65,44.478052690175865
66,45.207584128191044
67,45.96143514541084
68,46.74085257753818
69,47.54716816995399
70,48.381783144668724
71,49.24622693014761
72,50.142122705258544
73,51.07122770590057
74,52.03539763313087
75,53.0366869573221
76,54.07725819985774
77,55.15947448733037
78,56.28589148080392
79,57.45928588338069
80,58.682635413342155
81,59.959214544905294
82,61.292580866902945
83,62.6865726886569
84,64.14546096755383
85,65.6738615216784
86,67.27688527309785
87,68.96012738223654
88,70.72974665669658
89,72.59260364112622
90,74.55620534424413
91,76.62900956856122
92,78.82037881994138
93,81.14075465938596
94,83.60191437843794
95,86.21702317299044
96,89.00100318554513
97,91.97080563191292
98,95.14562365948399
99,98.54748474734004
100,102.20161997965751
101,106.13717745735597
102,110.38800612330887
103,114.99344737913214
104,119.99999971877139
105,125.4623242941021
106,131.44561202141026
107,138.02818187901647
108,145.30474253125678
109,153.39133241337274
110,162.43090348798245
111,172.60267490098107
112,184.1335837823378
113,197.31536451743622
114,212.5301272104156
115,230.28714666846997
116,251.28202179187127
117,276.48900554892276
118,307.31715564542077
119,345.88237805631576
120,395.5155313722917
121,461.78019767927833
122,554.7169266756458
123,694.4881864764153
124,928.4209757930906
125,1399.9999076104732
126,2845.160621020274
127,88200.01712785714
128,88200.01712785714
129,88200.01712785714
130,88200.01712785714
131,88200.01712785714
132,88200.01712785714
133,98.02069256994356
134,98.05052453195503
135,98.08490410836825
136,98.11782558010603
137,98.11938221997538
138,98.1074486120706
139,98.1148637085557
140,98.12785769252322
141,98.11944708050588
142,98.10941582794857
143,98.11466913618216
144,203.90768820826207
145,202.43206574923528
146,199.7984715277786
147,198.91487419565814
148,98.11363142337333
149,98.11523123520291
150,98.11767424143595
151,98.11745804374074
152,196.58230661161457
153,195.89780822338224
154,196.25982361511615
155,196.60262288288152
156,196.43162458066251
157,196.22172848574738
158,196.63264629127752
159,197.69650866290087
160,198.87118047701654
161,199.5643973193489
162,199.27074117390012
163,198.44062995267663
164,198.22378253600726
165,198.79135576833772
166,199.5380591539874
167,199.94283664143796
168,199.75977755939823
169,199.19913940469576
170,199.00667541002855
171,199.29840539983607
172,199.48451413854795
173,198.95524572959036
174,198.0920069694506
175,197.73031531342684
176,198.0112297124893
177,198.47670677797637
178,198.5241632546948
179,197.80369911677417
180,196.82892943557403
181,196.38696177296725
182,196.48582216586132
183,196.66137427649826
184,196.59469538865883
185,196.45776915288587
186,196.61843550634288
187,197.1807604363711
188,197.86860807616063
189,198.2863389131808
190,198.15788379883756
191,197.71872630012794
192,197.56490948815335
193,197.8730988723426
194,198.33125887619263
195,198.5885647439868
196,198.49931826471533
197,198.21657584168318
198,198.12487716221176
199,198.30538932805948
200,198.43162270190956
201,198.1516400583494
202,197.63439965535375
203,197.37063223928843
204,197.52112059678845
205,197.82915449137045
206,197.8965573090073
207,197.48952549798705
208,196.86657852533688
209,196.522019933676
210,196.54852300574234
211,196.6717312460454
212,196.64573151975148
213,196.54306619873785
214,196.61522955661337
215,196.97687800573866
216,197.4635917012648
217,197.7862658187474
218,197.73523867126525
219,197.43983654763034
220,197.30097396873617
221,197.49100504545555
222,197.82204932268294
223,198.02693745740186
224,197.98557640858917
225,197.79890480664196
226,197.7267426880327
227,197.85034074227394
228,197.95744012719462
229,197.79040608790098
230,197.42417537229787
231,197.2020076060874
232,197.28401968414565
233,197.513982970015
234,197.5950363092301
235,197.33553913817178
236,196.88098077236396
237,196.5885875373695
238,196.57892798973458
239,196.67389804506556
240,196.6699111533168
241,196.58880412459547
242,196.35740854194665
243,196.28763210697915
244,196.7536962086913
245,197.310886379222
246,197.47451306965246
247,197.27971613607008
248,197.07807633754854
249,197.10461096857014
250,197.41173432404375
251,197.73105598774566
252,197.67803942981644
253,197.3851148545025
254,197.38581074265056
255,197.60226394659597
256,197.77188450455677
257,197.73014103751976
258,197.32214713390033
259,196.79375920027363
260,196.50192848316655
261,196.57858146769684
262,196.7987459659049
263,196.80204163688956
264,196.42673368116937
265,195.92880329678377
266,195.6567063483879
267,195.68723208590868
268,195.80886492066864
269,195.8209029166967
270,195.7614536328513
271,195.85887707183835
272,196.22172848574738
273,196.69331362952124
274,196.97227734364898
275,196.86245759430412
276,196.57061162941704
277,196.49863783791344
278,196.79267513750952
279,197.26550205349685
280,197.63174325366168
281,197.68479095407864
282,197.56229755244703
283,197.5844565698262
284,197.75506405183836
285,197.75689418717533
286,197.38785492827404
287,196.85391235959676
288,196.51768970603752
289,196.55428313305302
290,196.77606804247222
291,196.82337810527062
292,196.4890260055122
293,195.9845895139248
294,195.67274470148948
295,195.67300339537712
296,195.79747481014857
297,195.8265122715435
298,195.76490447655084
299,195.83087041968363
300,196.16440514799902
301,196.63771563077194
302,196.9578684180907
303,196.89451637448215
304,196.60223299864248
305,196.4862551141127
306,196.74004023489601
307,197.20661363396417
308,197.6011318895477
309,197.6947662087065
310,197.57500929779567
311,197.5700463957802
312,197.73602293427518
313,197.77772406361188
314,197.45167025960112
315,196.9176852374967
316,196.5396882512752
317,196.53293253051731
318,196.75079152537862
319,196.8382542880663
320,196.5488261661292
321,196.04384737566951
322,195.69408809706323
323,195.66080203937346
324,195.78427346564104
325,195.83039576517976
326,195.77051222730373
327,195.8075274112361
328,196.10964804132155
329,196.5797076665529
330,196.93660415859478
331,196.92245818836042
332,196.63715236437432
333,196.48028051249807
334,196.6907132168751
335,197.14570109504078
336,197.5648659556086
337,197.70047280340563
338,197.58941983382107
339,197.5583797136339
340,197.71458753141934
341,197.79175714185328
342,197.51145874911478
343,196.98382260486102
344,196.5676663361737
345,196.51504831403105
346,196.72261398781436
347,196.84584461040998
348,196.60448567380666
349,196.10571579883296
350,195.7209970281036
351,195.65123119014325
352,195.7698220339271
353,195.8324669932761
354,195.77793195978197
355,195.78893266206393
356,196.0580166316991
357,196.51972490114372
358,196.90879050139674
359,196.94536996293604
360,196.67437474405367
361,196.48101650433475
362,196.6455581997768
363,197.08419939686615
364,197.52334027720372
365,197.70121336593795
366,197.60496349342216
367,197.54971721252002
368,197.69136846719974
369,197.79903555901328
370,197.56643313326236
371,197.05171895647854
372,196.60240628043104
373,196.50201507983846
374,196.69335697002327
375,196.8471024635257
376,196.65578433965996
377,196.16993789221488
378,195.75334438959644
379,195.64454911800235
380,195.75399139135396
381,195.83216493781435
382,195.78595594044808
383,195.7744808864406
384,196.0090765603915
385,196.45880808193903
386,196.87482064619516
387,196.96272914263102
388,196.71273113067718
389,196.488333278999
390,196.605092167684
391,197.02258664560395
392,197.47738492418662
393,197.69737989575717
394,197.62185826921387
395,197.5448855301873
396,197.66828279570302
397,197.80099685495483
398,197.61715545459296
399,197.1208548785618
400,196.64291508909136
401,196.49378856640283
402,196.66371429723654
403,196.84293856670647
404,196.7018952351791
405,196.23491608748148
406,195.79061517690985
407,195.64144526534358
408,195.73729943012637
409,195.82944645962343
410,195.79475681351468
411,195.76434371031036
412,195.9638621302022
413,196.39726101559322
414,196.83560858735495
415,196.97488147880392
416,196.75174529726016
417,196.50049964359027
418,196.56931222989908
419,196.96186114730813
420,197.42835156424997
421,197.68849350076692
422,197.6390157825691
423,197.54427613720435
424,197.64559177262512
425,197.79707428251896
426,197.66244646799635
427,197.19066680732325
428,196.68897962754392
429,196.49041146586526
430,196.6336861451347
431,196.83278943720745
432,196.7418609766381
433,196.30052136007677
434,195.83427933583073
435,195.64398869651836
436,195.72185955503662
437,195.82569243273232
438,195.80433468371837
439,195.75955569474527
440,195.92353637859824
441,196.33573323085363
442,196.791027373545
443,196.98017665979407
444,196.79024685858792
445,196.51829593216294
446,196.53869220092747
447,196.9022390259164
448,197.37519871496178
449,197.6738143996785
450,197.65530373426864
451,197.54684430607904
452,197.6239048994151
453,197.78844489697218
454,197.70204105675685
455,197.25972108353926
456,196.74069049786956
457,196.49348549090692
458,196.6049622045528
459,196.81769682777932
460,196.7758512489325
461,196.36584568721025
462,195.88209671659646
463,195.65054141729465
464,195.70598966793014
465,195.81909069793375
466,195.8128775037835
467,195.7576577750401
468,195.88710354349357
469,196.2756951643859
470,196.74225113777507
471,196.97896135976785
472,196.8275849583982
473,196.5420701312709
474,196.51452870011045
475,196.84463013916638
476,197.31997319297926
477,197.65373585165696
478,197.670112127918
479,197.55306898950707
480,197.60400558548827
481,197.77510931435944
482,197.735107961066
483,197.32788645301264
484,196.79718487785934
485,196.50309754145684
486,196.57819163113447
487,196.7989194208966
488,196.8038629524271
489,196.43010968727037
490,195.93346593267023
491,195.66084515236614
492,195.68981923171071
493,195.809512105932
494,195.8196084730118
495,195.75808911881188
496,195.85417305534463
497,196.21697251897209
498,196.69001977930907
499,196.9714093062481
500,196.86310826189018
501,196.5705250025153
502,196.49660286118882
503,196.7893796233774
504,197.2623724848184
505,197.62804176985992
506,197.6826565763217
507,197.56251521243698
508,197.5864157380885
509,197.75846288808756
510,197.76212323860835
511,197.39424858166495
512,196.85777285116896
513,196.5184258380046
514,196.55346024738785
515,196.7758512489325
516,196.82472255371056
517,196.4924030822377
518,195.98912392135009
519,195.67718566068646
520,195.6760646323501
521,195.79846710403575
522,195.82556298481273
523,195.76197125552832
524,195.8263396736138
525,196.1597370164436
526,196.63403276430913
527,196.95595888055502
528,196.89447298965555
529,196.60240628043104
530,196.48504286141278
531,196.73683230234812
532,197.20209451127798
533,197.59651664716208
534,197.69180407182182
535,197.5740515350674
536,197.5709170713273
537,197.7387678793058
538,197.78243069938082
539,197.4568042228819
540,196.9215469797154
541,196.54116068277494
542,196.53275930996165
543,196.75001117000542
544,196.83881813051968
545,196.55216096124641
546,196.0486855430785
547,195.69900387555268
548,195.66425110880687
549,195.78595594044808
550,195.83009371291269
551,195.7680965611313
552,195.80364437109992
553,196.10528368908206
554,196.5758959426153
555,196.9340873165729
556,196.92167715212082
557,196.63715236437432
558,196.47945793664908
559,196.6875927670802
560,197.1404014644565
561,197.5592503377669
562,197.69650866290087
563,197.58737356075363
564,197.5581185271422
565,197.71637372623528
566,197.79563602544948
567,197.51546270071347
568,196.98729499623602
569,196.57017849529
570,196.51578443610376
571,196.72226721249226
572,196.84645184884164
573,196.60786473494915
574,196.1109011901106
575,195.72630162893694
576,195.65519743121536
577,195.77189262135678
578,195.83255329492223
579,195.7759475851775
580,195.78526569262434
581,196.05378302719453
582,196.51613084744503
583,196.90605707784115
584,196.9444586482726
585,196.67437474405367
586,196.48036709962992
587,196.6426551129102
588,197.0792488235427
589,197.51789992838312
590,197.6973363340232
591,197.60304768219788
592,197.54949956662998
593,197.69328513471626
594,197.80308892539458
595,197.57100413909308
596,197.05536622573604
597,196.604745599525
598,196.50257795913583
599,196.6930969271543
600,196.8476663313246
601,196.65873095322914
602,196.1747359451768
603,195.7584341945136
604,195.64855833390087
605,195.75627748135736
606,195.8324669932761
607,195.7842303254515
608,195.77102987393303
609,196.0049735791117
610,196.45530171840414
611,196.87221783390905
612,196.96203474606668
613,196.7130778891894
614,196.48772714530335
615,196.60262288288152
616,197.01828880042137
617,197.47255501096114
618,197.69367718263385
619,197.62011647297194
620,197.54514669918402
621,197.67028635091663
622,197.80500667606898
623,197.62211953997428
624,197.1252418324891
625,196.64547153984677
626,196.49426482884084
627,196.66319429022184
628,196.8431554341582
629,196.70440910975736
630,196.23988869199482
631,195.79605109292044
632,195.64597173359454
633,195.74014602051483
634,195.83035261482738
635,195.7933762582454
636,195.7612810922631
637,195.95997598980733
638,196.39353937820405
639,196.83278943720745
640,196.9737530160097
641,196.75200541766665
642,196.50019655774312
643,196.5668867071138
644,196.95778162052832
645,197.42339234614153
646,197.6845731593742
647,197.63709964120247
648,197.54418908121744
649,197.64737734411904
650,197.80099685495483
651,197.66758591169327
652,197.19488151078667
653,196.69149333705914
654,196.49075783247997
655,196.6329062542263
656,196.83265932356002
657,196.74394184497623
658,196.30471703779648
659,195.83928494049596
660,195.6484721133397
661,195.72444715864222
662,195.82625337470597
663,195.80286777231328
664,195.7560618113486
665,195.91904665849353
666,196.33140710791466
667,196.78773188700663
668,196.97887455291004
669,196.7900734112401
670,196.51764640424298
671,196.5363103618687
672,196.89811734841632
673,197.37063223928843
674,197.66976368238133
675,197.653126122889
676,197.54658313483796
677,197.6254289995041
678,197.79197505464538
679,197.70700727443977
680,197.26406766168938
681,196.74298811092265
682,196.4934421944457
683,196.6037058987135
684,196.81717641361274
685,196.77723873171405
686,196.3690475705602
687,195.8862834510136
688,195.6543783096235
689,195.70805958022768
690,195.81934958530164
691,195.81097906711497
692,195.75377572386384
693,195.88209671659646
694,196.2709378895815
695,196.73856631344617
696,196.97713842378727
697,196.82710788805946
698,196.541290603731
699,196.51223375506265
700,196.84055304050665
701,197.3145384454606
702,197.64951134096646
703,197.66784724290898
704,197.5527207502897
705,197.60531182473125
706,197.77876997299222
707,197.740423578859
708,197.33249542102928
709,196.80030706633374
710,196.50400681382445
711,196.57767185025395
712,196.79831232909456
713,196.8050771721496
714,196.4335290346453
715,195.93812867951624
716,195.66528584149273
717,195.69266513159883
718,195.81041816889436
719,195.8184866287397
720,195.75489719740716
721,195.84977123398122
722,196.21221666747053
723,196.68611923855212
724,196.9689354206424
725,196.86219732787185
726,196.57009186857914
727,196.4949142794803
728,196.78565055552178
729,197.2566350711923
730,197.62351298986349
731,197.67986885232474
732,197.56151397846878
733,197.58711233592993
734,197.7617746308779
735,197.76713454264228
736,197.39842414056375
737,196.86111288810784
738,196.52020122644635
739,196.5535468667693
740,196.77541766256957
741,196.825893532415
742,196.49608329604067
743,195.99404711105353
744,195.68175607344722
745,195.67895344918904
746,195.79967512077297
747,195.82470000086892
748,195.75886553999624
749,195.82206792332912
750,196.15532832753198
751,196.6304366200895
752,196.95409275948663
753,196.89416929613694
754,196.60223299864248
755,196.48335437904444
756,196.73345102466516
757,197.19740168579065
758,197.59177089712352
759,197.688449940991
760,197.57296317396646
761,197.57161361452768
762,197.74129500524484
763,197.78674521389704
764,197.4618512999501
765,196.92488809869408
766,196.5420701312709
767,196.5320664292657
768,196.7492308177273
769,196.83977232912025
770,196.55480285209026
771,196.0529190375075
772,195.70348855311292
773,195.66735532328047
774,195.78712073916878
775,195.8291012587439
776,195.76516329228053
777,195.79902796802259
778,196.10031449538107
779,196.571564527856
780,196.93209122335796
781,196.9215469797154
782,196.63689239581188
783,196.4772499869244
784,196.68403898177658
785,197.13666574489906
786,197.55541962028065
787,197.69380786544582
788,197.58693818623934
789,197.55951152575497
790,197.7195104976461
791,197.80060459421074
792,197.52155582627645
793,196.99128832198892
794,196.57026512203905
795,196.51396578658031
796,196.72079342419295
797,196.84679884307218
798,196.60977089762457
799,196.11453104558592
800,195.73095944576906
801,195.65877573943342
802,195.7735318519367
803,195.8320354856162
804,195.77340243849716
805,195.7811242567847
806,196.04859914618487
807,196.5111512431163
808,196.90371417356567
809,196.9441548776552
810,196.67389804506556
811,196.47846219154468
812,196.6393187824272
813,197.07560111224566
814,197.51415705540416
815,197.69459196413175
816,197.60252519145124
817,197.55097956341086
818,197.69629085528672
819,197.8079269230352
820,197.57714251328602
821,197.0602293564254
822,196.60600191200803
823,196.50158209686066
824,196.6919267384983
825,196.8479265785458
826,196.6606376090653
827,196.1782373011319
828,195.7631790470973
829,195.65235207620879
830,195.75808911881188
831,195.83216493781435
832,195.78190076933166
833,195.76680246651463
834,195.99987736406268
835,196.4500639338888
836,196.86970181474192
837,196.96168754870257
838,196.7126010963927
839,196.48569228157191
840,196.59924391182975
841,197.01451198356585
842,197.46855192916937
843,197.69041014040994
844,197.61889722473694
845,197.5459302082459
846,197.67255126387298
847,197.80910375116432
848,197.62782403767758
